Temp,p
307.15,0.922
309.15,1.056
311.15,1.204
313.15,1.356
315.15,1.533
317.15,1.736
319.15,1.948
321.15,2.178
323.15,2.429
325.15,2.702
327.15,2.998
329.15,3.319
331.15,3.667
333.15,4.044
335.15,4.451
337.15,4.892
339.15,5.367
341.15,5.88
343.15,6.433
345.15,7.029
347.15,7.67
349.15,8.36
351.15,9.101
353.15,9.898
355.15,10.755
357.15,11.674
359.15,12.66
361.15,13.718
363.15,14.853
365.15,16.068
367.15,17.371
369.15,18.806
